Frequency, Hz: 49.08738521234052
Mode shape:
0   -643.4925270985915
0.01   -618.2030553372576
0.02   -592.9144612286633
0.03   -567.6289650795973
0.04   -542.3501972385686
0.05   -517.0831379645008
0.060000000000000005   -491.8340573119628
0.07   -466.61045504475675
0.08   -441.4210005927475
0.09   -416.2754730697484
0.09999999999999999   -391.1847013730551
0.10999999999999999   -366.16050438786044
0.11999999999999998   -341.2156313222796
0.12999999999999998   -316.3637022010681
0.13999999999999999   -291.61914854833
0.15   -266.9971542915824
0.16   -242.5135969214728
0.17   -218.1849889432371
0.18000000000000002   -194.02841965763122
0.19000000000000003   -170.06149731058815
0.20000000000000004   -146.3022916522105
0.21000000000000005   -122.76927694695814
0.22000000000000006   -99.48127547797696
0.23000000000000007   -76.45740158948195
0.24000000000000007   -53.717006311934256
0.25000000000000006   -31.27962261544917
0.26000000000000006   -9.164911337427952
0.2700000000000001   12.607392169147147
0.2800000000000001   34.01753062003013
0.2900000000000001   55.04577656971719
0.3000000000000001   75.67248332018426
0.3100000000000001   95.87813492145642
0.3200000000000001   115.6433952173104
0.3300000000000001   134.9491558897123
0.34000000000000014   153.7765834560297
0.35000000000000014   172.1071651735948
0.36000000000000015   189.92275380684157
0.37000000000000016   207.20561121301876
0.38000000000000017   223.93845070332748
0.3900000000000002   240.10447813732696
0.4000000000000002   255.68743170950722
0.4100000000000002   270.67162038810704
0.4200000000000002   285.04196096752196
0.4300000000000002   298.7840136969983
0.4400000000000002   311.88401644975863
0.45000000000000023   324.32891739823333
0.46000000000000024   336.1064061626779
0.47000000000000025   347.20494340215726
0.48000000000000026   357.61378881862527
0.49000000000000027   367.32302754667137
0.5000000000000002   376.3235949034047
0.5100000000000002   384.6072994749038
0.5200000000000002   392.1668445176804
0.5300000000000002   398.995847655696
0.5400000000000003   405.08885885557675
0.5500000000000003   410.44137666485517
0.5600000000000003   415.0498627002926
0.5700000000000003   418.91175437557695
0.5800000000000003   422.02547585998286
0.5900000000000003   424.3904472619124
0.6000000000000003   426.0070920335652
0.6100000000000003   426.8768425953713
0.6200000000000003   427.00214418118185
0.6300000000000003   426.3864569076368
0.6400000000000003   425.03425607352347
0.6500000000000004   422.9510306973539
0.6600000000000004   420.1432803037999
0.6700000000000004   416.61850997204283
0.6800000000000004   412.3852236614953
0.6900000000000004   407.4529158327309
0.7000000000000004   401.83206138385003
0.7100000000000004   395.53410392485966
0.7200000000000004   388.57144241496144
0.7300000000000004   380.9574161899686
0.7400000000000004   372.70628840932613
0.7500000000000004   363.8332279544661
0.7600000000000005   354.3542898123719
0.7700000000000005   344.28639398046835
0.7800000000000005   333.6473029309732
0.7900000000000005   322.45559767495297
0.8000000000000005   310.7306524683213
0.8100000000000005   298.49260820393874
0.8200000000000005   285.76234453590405
0.8300000000000005   272.5614507839023
0.8400000000000005   258.9121956672652
0.8500000000000005   244.83749592007007
0.8600000000000005   230.36088384022787
0.8700000000000006   215.50647382703391
0.8800000000000006   200.29892796315653
0.8900000000000006   184.76342069835937
0.9000000000000006   168.92560269364913
0.9100000000000006   152.8115638856234
0.9200000000000006   136.4477958321113
0.9300000000000006   119.86115340101605
0.9400000000000006   103.07881586545864
0.9500000000000006   86.12824746898514
0.9600000000000006   69.03715752552216
0.9700000000000006   51.833460119326446
0.9800000000000006   34.54523347085524
0.9900000000000007   17.20067903488325
1.0000000000000007   -0.1719196023323093
1.0100000000000007   -17.544237959826205
1.0200000000000007   -34.887951965378306
1.0300000000000007   -52.174779258288254
1.0400000000000007   -69.37652042414447
1.0500000000000007   -86.46510009434314
1.0600000000000007   -103.41260784332553
1.0700000000000007   -120.19133881672315
1.0800000000000007   -136.77383402414307
1.0900000000000007   -153.1329202306406
1.1000000000000008   -169.2417493816247
1.1100000000000008   -185.07383749662768
1.1200000000000008   -200.60310296803618
1.1300000000000008   -215.80390420185176
1.1400000000000008   -230.65107653849373
1.1500000000000008   -245.11996839259882
1.1600000000000008   -259.1864765521332
1.1700000000000008   -272.8270805780121
1.1800000000000008   -286.01887624707706
1.1900000000000008   -298.73960798245025
1.2000000000000008   -310.96770021680277
1.2100000000000009   -322.68228763563457
1.2200000000000009   -333.8632442492453
1.2300000000000009   -344.49121124382873
1.2400000000000009   -354.5476235638416
1.2500000000000009   -364.01473517949853
1.260000000000001   -372.87564299547375
1.270000000000001   -381.11430935840326
1.280000000000001   -388.7155831230921
1.290000000000001   -395.66521923933396
1.300000000000001   -401.94989682324376
1.310000000000001   -407.55723567924724
1.320000000000001   -412.47581124112185
1.330000000000001   -416.6951679025369
1.340000000000001   -420.20583071003784
1.350000000000001   -422.99931539358295
1.360000000000001   -425.0681367120269
1.370000000000001   -426.4058150935525
1.380000000000001   -427.0068815529594
1.390000000000001   -426.86688087083894
1.400000000000001   -425.98237302114285
1.410000000000001   -424.35093283686
1.420000000000001   -421.9711479056423
1.430000000000001   -418.84261468941986
1.440000000000001   -414.9659328646085
1.450000000000001   -410.3426978824864
1.460000000000001   -404.97549175021413
1.470000000000001   -398.8678720372918
1.480000000000001   -392.0243591128601
1.490000000000001   -384.450421622656
1.500000000000001   -376.15246021627536
1.5100000000000011   -367.1377895377518
1.5200000000000011   -357.4146184946221
1.5300000000000011   -346.99202882292593
1.5400000000000011   -335.87995196765405
1.5500000000000012   -324.08914430014556
1.5600000000000012   -311.6311606962263
1.5700000000000012   -298.51832650032884
1.5800000000000012   -284.7637079035776
1.5900000000000012   -270.3810807644477
1.6000000000000012   -255.3848979039467
1.6100000000000012   -239.7902549069113
1.6200000000000012   -223.61285446505644
1.6300000000000012   -206.86896929676004
1.6400000000000012   -189.57540368109767
1.6500000000000012   -171.74945364502491
1.6600000000000013   -153.4088658435503
1.6700000000000013   -134.57179517402255
1.6800000000000013   -115.25676116636896
1.6900000000000013   -95.4826031934208
1.7000000000000013   -75.26843454394839
1.7100000000000013   -54.633595404418884
1.7200000000000013   -33.59760479439865
1.7300000000000013   -12.180111501482315
1.7400000000000013   9.599155938019976
1.7500000000000013   31.720440164761385
1.7600000000000013   54.164006783335935
1.7700000000000014   76.91019696198055
1.7800000000000014   99.93948079936672
1.7900000000000014   123.23251141011133
1.8000000000000014   146.77017968485598
1.8100000000000014   170.53366967683542
1.8200000000000014   194.50451457026065
1.8300000000000014   218.66465318680275
1.8400000000000014   242.996486984106
1.8500000000000014   267.48293750575976
1.8600000000000014   292.107504239073
1.8700000000000014   316.8543228409835
1.8800000000000014   341.7082236928982
1.8900000000000015   366.65479074633913
1.9000000000000015   391.68042062351014
1.9100000000000015   416.77238193852827
1.9200000000000015   441.91887480724836
1.9300000000000015   467.1090905153542
1.9400000000000015   492.33327131555416
1.9500000000000015   517.5827703305404
1.9600000000000015   542.8501115357503
1.9700000000000015   568.1290498048184
1.9800000000000015   593.4146309952484
1.9900000000000015   618.7032520641806
